# dimensionless total [l(l+1)/2pi] C_l's
# for l=2 to 3000, i.e. number of multipoles equal to 2999
#
# -> if you prefer output in CAMB/HealPix/LensPix units/order, set 'format' to 'camb' in input file
# -> if you don't want to see such a header, set 'headers' to 'no' in input file
# -> for CMB lensing (phi), these are C_l^phi-phi for the lensing potential.
#    Remember the conversion factors:
#    C_l^dd (deflection) = l(l+1) C_l^phi-phi
#    C_l^gg (shear/convergence) = 1/4 (l(l+1))^2 C_l^phi-phi
#
# 1:l     2:TT                     3:EE                     4:TE                     5:BB                     6:phiphi                 7:TPhi                   8:Ephi               
    2       1.114733563713e-10       3.046700536181e-15       2.622354168446e-13       0.000000000000e+00       7.749324560605e-09       4.096674551685e-10      -1.527359828712e-12 
    3       1.053739603129e-10       3.917270991657e-15       2.956228066191e-13       0.000000000000e+00       4.715022209147e-09       2.867022622793e-10      -1.155946218263e-12 
    4       9.989035677196e-11       3.398122036160e-15       2.770853632807e-13       0.000000000000e+00       3.244771294881e-09       2.150237221964e-10      -7.532061847635e-13 
    5       9.598763136396e-11       2.273931685938e-15       2.364733821577e-13       0.000000000000e+00       2.401058928951e-09       1.685663097217e-10      -4.132095958586e-13 
    6       9.353325516149e-11       1.282795164214e-15       1.911073088908e-13       0.000000000000e+00       1.861618841040e-09       1.363283021689e-10      -1.620236165248e-13 
    7       9.216537348490e-11       7.135718346617e-16       1.509890887575e-13       0.000000000000e+00       1.491749433099e-09       1.128571466978e-10      -1.494519616537e-15 
    8       9.161324548837e-11       4.850546980229e-16       1.204652212143e-13       0.000000000000e+00       1.225219782038e-09       9.514306150808e-11       8.031334338402e-14 
    9       9.168168959299e-11       4.057113155428e-16       1.004368741579e-13       0.000000000000e+00       1.025960015940e-09       8.144939241631e-11       1.025191362737e-13 
   10       9.220057254448e-11       3.507600081714e-16       8.976777462402e-14       0.000000000000e+00       8.725684378961e-10       7.067386275218e-11       8.661433018679e-14 
   11       9.306198695666e-11       2.927714291118e-16       8.634233555840e-14       0.000000000000e+00       7.451432122387e-10       6.270346737147e-11       5.285661524427e-14 
   12       9.422822770206e-11       2.497406832981e-16       8.779288454963e-14       0.000000000000e+00       6.491092789109e-10       5.543575015647e-11       1.657689426961e-14 
   13       9.555467133831e-11       2.344286036687e-16       9.205157259320e-14       0.000000000000e+00       5.704727487740e-10       4.944318683685e-11      -1.188548925468e-14 
   14       9.710309779372e-11       2.414157870983e-16       9.764376425106e-14       0.000000000000e+00       5.052096998400e-10       4.425729347251e-11      -2.829447335356e-14 
   15       9.882099500267e-11       2.598287226105e-16       1.036131391375e-13       0.000000000000e+00       4.504106781191e-10       3.991882461596e-11      -3.249060630251e-14 
   16       1.006374843132e-10       2.858610644215e-16       1.095016645891e-13       0.000000000000e+00       4.039273025132e-10       3.620132445661e-11      -2.765530565130e-14 
   17       1.025433390053e-10       3.233816671755e-16       1.152272732950e-13       0.000000000000e+00       3.641418505761e-10       3.296547085206e-11      -1.821543793148e-14 
   18       1.045476184571e-10       3.773895139555e-16       1.210016917758e-13       0.000000000000e+00       3.296891989813e-10       3.014476770069e-11      -8.524165776763e-15 
   19       1.066506487349e-10       4.484674040672e-16       1.270360797050e-13       0.000000000000e+00       2.999901618454e-10       2.769614028458e-11      -1.111199323987e-15 
   20       1.088051790488e-10       5.350990725947e-16       1.334961027440e-13       0.000000000000e+00       2.738891500911e-10       2.551935591007e-11       2.151153760862e-15 
   21       1.110146469051e-10       6.365057993783e-16       1.403619144155e-13       0.000000000000e+00       2.509605344475e-10       2.357817632841e-11       1.465299046497e-15 
   22       1.132759181770e-10       7.519714717324e-16       1.474922488000e-13       0.000000000000e+00       2.306384146591e-10       2.182981571115e-11      -1.891724135642e-15 
   23       1.155983724286e-10       8.819604049132e-16       1.546559829588e-13       0.000000000000e+00       2.126405492695e-10       2.027337304813e-11      -6.386836055425e-15 
   24       1.179775033594e-10       1.027132603431e-15       1.615440279892e-13       0.000000000000e+00       1.965457090681e-10       1.889869089926e-11      -1.025954247999e-14 
   25       1.204097408727e-10       1.187502566665e-15       1.678671880357e-13       0.000000000000e+00       1.821282453643e-10       1.767574142089e-11      -1.258379241271e-14 
   26       1.228812747642e-10       1.362991604646e-15       1.733477751538e-13       0.000000000000e+00       1.690988340224e-10       1.655778649762e-11      -1.282442020235e-14 
   27       1.253983728514e-10       1.554759680605e-15       1.779012650681e-13       0.000000000000e+00       1.573854303392e-10       1.553589726468e-11      -1.134932833768e-14 
   28       1.279606097768e-10       1.764524160497e-15       1.815187794816e-13       0.000000000000e+00       1.468414853548e-10       1.460140384129e-11      -9.009923155503e-15 
   29       1.305560273082e-10       1.994047830833e-15       1.842155445780e-13       0.000000000000e+00       1.372052340438e-10       1.373673841262e-11      -6.779575828401e-15 
   30       1.331871183555e-10       2.244320586609e-15       1.860219028935e-13       0.000000000000e+00       1.284205764372e-10       1.294156051659e-11      -5.069469798087e-15 
   31       1.358521125114e-10       2.516051246154e-15       1.869924463230e-13       0.000000000000e+00       1.204197222798e-10       1.221507454077e-11      -4.155337517911e-15 
   32       1.385425913127e-10       2.809910052596e-15       1.871816856913e-13       0.000000000000e+00       1.130729211236e-10       1.155072239059e-11      -4.240635944506e-15 
   33       1.412638475165e-10       3.126677830874e-15       1.865433916339e-13       0.000000000000e+00       1.063381923856e-10       1.094409408064e-11      -5.060167386881e-15 
   34       1.440202119859e-10       3.467143779284e-15       1.849937584088e-13       0.000000000000e+00       1.001539140045e-10       1.038673241518e-11      -6.118692758854e-15 
   35       1.468109411907e-10       3.832074963419e-15       1.824393842171e-13       0.000000000000e+00       9.442570490067e-11       9.867166727499e-12      -6.904151281088e-15 
   36       1.496374070792e-10       4.222256900608e-15       1.787872928155e-13       0.000000000000e+00       8.913749343219e-11       9.383811958848e-12      -7.303966353990e-15 
   37       1.524971096108e-10       4.638462457845e-15       1.739368459424e-13       0.000000000000e+00       8.427166752352e-11       8.935849279753e-12      -7.328080545644e-15 
   38       1.553808858261e-10       5.081438139324e-15       1.677760486427e-13       0.000000000000e+00       7.977553746673e-11       8.519447914782e-12      -7.000163160819e-15 
   39       1.582775776864e-10       5.551862550580e-15       1.602090967291e-13       0.000000000000e+00       7.558007184136e-11       8.129277232931e-12      -6.373483493806e-15 
   40       1.611916399127e-10       6.050210396239e-15       1.512523028755e-13       0.000000000000e+00       7.167163920226e-11       7.764352335123e-12      -5.582230971475e-15 
   41       1.641303732390e-10       6.576838222571e-15       1.409695147843e-13       0.000000000000e+00       6.803932718517e-11       7.423707448774e-12      -4.809629377956e-15 
   42       1.670987977726e-10       7.132014384667e-15       1.294479058454e-13       0.000000000000e+00       6.465355757112e-11       7.104627929694e-12      -4.276979828345e-15 
   43       1.700996354358e-10       7.716010096112e-15       1.167669411743e-13       0.000000000000e+00       6.147685406408e-11       6.803676567132e-12      -4.181768801528e-15 
   44       1.731339336985e-10       8.329419164794e-15       1.028905023996e-13       0.000000000000e+00       5.850386257599e-11       6.520504374555e-12      -4.483511960109e-15 
   45       1.762001503851e-10       8.972928943128e-15       8.774341091038e-14       0.000000000000e+00       5.573117331576e-11       6.254979359167e-12      -5.054991368948e-15 
   46       1.792936368589e-10       9.647233340890e-15       7.124021638659e-14       0.000000000000e+00       5.314531489032e-11       6.006045047717e-12      -5.738904339011e-15 
   47       1.824063672630e-10       1.035303358259e-14       5.328450212133e-14       0.000000000000e+00       5.072197229560e-11       5.771647391200e-12      -6.346090039811e-15 
   48       1.855301276580e-10       1.109094872707e-14       3.378810643532e-14       0.000000000000e+00       4.843338663126e-11       5.549398175164e-12      -6.704751812285e-15 
   49       1.886677782508e-10       1.186121563235e-14       1.273681497389e-14       0.000000000000e+00       4.627484550437e-11       5.338956943116e-12      -6.828669449402e-15 
   50       1.918247006561e-10       1.266390571577e-14      -9.858007270449e-15       0.000000000000e+00       4.424431636681e-11       5.140194922228e-12      -6.793357018823e-15 
   51       1.950055232639e-10       1.349900405562e-14      -3.397740173308e-14       0.000000000000e+00       4.233456115584e-11       4.952482495865e-12      -6.690015146971e-15 
   52       1.982140270062e-10       1.436640554446e-14      -5.959449482804e-14       0.000000000000e+00       4.053277171997e-11       4.774653685101e-12      -6.626359452911e-15 
   53       2.014529342567e-10       1.526601299492e-14      -8.668672451395e-14       0.000000000000e+00       3.882453952295e-11       4.605385220920e-12      -6.700174180389e-15 
   54       2.047234287168e-10       1.619806992805e-14      -1.152769509707e-13       0.000000000000e+00       3.720780236578e-11       4.444529957240e-12      -6.910082323729e-15 
   55       2.080253478359e-10       1.716290665502e-14      -1.454023569995e-13       0.000000000000e+00       3.568184856392e-11       4.292064431881e-12      -7.223274519078e-15 
   56       2.113571919690e-10       1.816084623374e-14      -1.771030253944e-13       0.000000000000e+00       3.424311785448e-11       4.147686561349e-12      -7.600467386847e-15 
   57       2.147160252427e-10       1.919220489700e-14      -2.104221436150e-13       0.000000000000e+00       3.288501855276e-11       4.010797505610e-12      -7.995588368032e-15 
   58       2.180973764216e-10       2.025729248060e-14      -2.454062084599e-13       0.000000000000e+00       3.159774470883e-11       3.880483532865e-12      -8.355460560540e-15 
   59       2.214968686466e-10       2.135631049910e-14      -2.820929436578e-13       0.000000000000e+00       3.037094787546e-11       3.755777323343e-12      -8.631772910023e-15 
   60       2.249157757642e-10       2.248901776043e-14      -3.204713112075e-13       0.000000000000e+00       2.920289223066e-11       3.636553931225e-12      -8.820952731302e-15 
   61       2.283565834310e-10       2.365498771568e-14      -3.605125587072e-13       0.000000000000e+00       2.809310617589e-11       3.522811210102e-12      -8.933012222603e-15 
   62       2.318213339941e-10       2.485370100439e-14      -4.021814824000e-13       0.000000000000e+00       2.703963034243e-11       3.414400182626e-12      -8.980176482812e-15 
   63       2.353115859643e-10       2.608454241313e-14      -4.454362153363e-13       0.000000000000e+00       2.603893151442e-11       3.311016377788e-12      -8.976984800501e-15 
   64       2.388283734869e-10       2.734679783405e-14      -4.902280155351e-13       0.000000000000e+00       2.508581655192e-11       3.212191168206e-12      -8.940391942941e-15 
   65       2.423723594099e-10       2.863973896469e-14      -5.365119482212e-13       0.000000000000e+00       2.417484900123e-11       3.117425393376e-12      -8.886451174702e-15 
   66       2.459444231952e-10       2.996290508823e-14      -5.842820378333e-13       0.000000000000e+00       2.330514097192e-11       3.026642579120e-12      -8.819319314989e-15 
   67       2.495451254366e-10       3.131587570892e-14      -6.335432039187e-13       0.000000000000e+00       2.247642522455e-11       2.939816500375e-12      -8.740097325033e-15 
   68       2.531744907956e-10       3.269818750043e-14      -6.843011151175e-13       0.000000000000e+00       2.168759881105e-11       2.856832769589e-12      -8.650048677265e-15 
   69       2.568319728878e-10       3.410933371870e-14      -7.365622820532e-13       0.000000000000e+00       2.093667903100e-11       2.777484154027e-12      -8.550605028382e-15 
   70       2.605164191709e-10       3.554876361482e-14      -7.903341502242e-13       0.000000000000e+00       2.022075938790e-11       2.701465893082e-12      -8.443371892407e-15 
   71       2.642260358315e-10       3.701588184790e-14      -8.456251928947e-13       0.000000000000e+00       1.953596554540e-11       2.628371015584e-12      -8.330134313754e-15 
   72       2.679590834033e-10       3.851004099295e-14      -9.024383633590e-13       0.000000000000e+00       1.887844274038e-11       2.557798360064e-12      -8.212727994827e-15 
   73       2.717161962303e-10       4.003051870439e-14      -9.607497902568e-13       0.000000000000e+00       1.824763532204e-11       2.489711046025e-12      -8.092611433710e-15 
   74       2.754984468432e-10       4.157653508764e-14      -1.020526141654e-12       0.000000000000e+00       1.764356005718e-11       2.424138669220e-12      -7.971221528062e-15 
   75       2.793066365615e-10       4.314725848354e-14      -1.081730845603e-12       0.000000000000e+00       1.706581030459e-11       2.361068621762e-12      -7.850103400666e-15 
   76       2.831412770639e-10       4.474180472366e-14      -1.144324031426e-12       0.000000000000e+00       1.651353552062e-11       2.300443982548e-12      -7.730913000682e-15 
   77       2.870025719589e-10       4.635923638542e-14      -1.208262470988e-12       0.000000000000e+00       1.598542076460e-11       2.242161407704e-12      -7.615419704892e-15 
   78       2.908903983559e-10       4.799856204739e-14      -1.273499519978e-12       0.000000000000e+00       1.547966620444e-11       2.186069021018e-12      -7.505508918952e-15 
   79       2.948042884353e-10       4.965873554446e-14      -1.339985059189e-12       0.000000000000e+00       1.499396662208e-11       2.131964304375e-12      -7.403184678637e-15 
   80       2.987437366399e-10       5.133867300909e-14      -1.407669783224e-12       0.000000000000e+00       1.452607898810e-11       2.079648075283e-12      -7.310135453763e-15 
   81       3.027092232300e-10       5.303730904180e-14      -1.476519053542e-12       0.000000000000e+00       1.407568378843e-11       2.029101855997e-12      -7.226338997995e-15 
   82       3.067013356743e-10       5.475354898166e-14      -1.546501355285e-12       0.000000000000e+00       1.364281104724e-11       1.980337600557e-12      -7.151218823029e-15 
   83       3.107204466092e-10       5.648625157768e-14      -1.617584184980e-12       0.000000000000e+00       1.322727151249e-11       1.933343289208e-12      -7.084054072905e-15 
   84       3.147667014400e-10       5.823422857339e-14      -1.689734072325e-12       0.000000000000e+00       1.282864705157e-11       1.888081857488e-12      -7.023974036415e-15 
   85       3.188400059413e-10       5.999624429145e-14      -1.762916601976e-12       0.000000000000e+00       1.244628104700e-11       1.844490125311e-12      -6.969952659512e-15 
   86       3.229400138573e-10       6.177101521825e-14      -1.837096435336e-12       0.000000000000e+00       1.207926879212e-11       1.802477726054e-12      -6.920803057719e-15 
   87       3.270661145032e-10       6.355720958844e-14      -1.912237332335e-12       0.000000000000e+00       1.172644788673e-11       1.761926035642e-12      -6.875172028540e-15 
   88       3.312174203652e-10       6.535344696960e-14      -1.988302173226e-12       0.000000000000e+00       1.138638863277e-11       1.722687101633e-12      -6.831534563867e-15 
   89       3.353930696244e-10       6.715832518056e-14      -2.065251813862e-12       0.000000000000e+00       1.105773183900e-11       1.684619454689e-12      -6.788462457148e-15 
   90       3.395932151421e-10       6.897050679132e-14      -2.143041398285e-12       0.000000000000e+00       1.074028389922e-11       1.647704315336e-12      -6.745490375539e-15 
   91       3.438181684912e-10       7.078864548993e-14      -2.221623505151e-12       0.000000000000e+00       1.043407660020e-11       1.611945728005e-12      -6.702376167918e-15 
   92       3.480680912696e-10       7.261135995082e-14      -2.300949266994e-12       0.000000000000e+00       1.013903066671e-11       1.577334790288e-12      -6.658837502383e-15 
   93       3.523429874189e-10       7.443723382885e-14      -2.380968374529e-12       0.000000000000e+00       9.854951361797e-12       1.543849134568e-12      -6.614550484943e-15 
   94       3.566426955431e-10       7.626481575341e-14      -2.461629080973e-12       0.000000000000e+00       9.581524087103e-12       1.511452409653e-12      -6.569148278219e-15 
   95       3.609668812268e-10       7.809261932252e-14      -2.542878206347e-12       0.000000000000e+00       9.318309983163e-12       1.480093762404e-12      -6.522219720140e-15 
   96       3.653150293544e-10       7.991912309690e-14      -2.624661141791e-12       0.000000000000e+00       9.064741529710e-12       1.449707319367e-12      -6.473307942642e-15 
   97       3.696864364282e-10       8.174277059403e-14      -2.706921853873e-12       0.000000000000e+00       8.820118145982e-12       1.420211668402e-12      -6.421908990363e-15 
   98       3.740802028870e-10       8.356197028230e-14      -2.789602888905e-12       0.000000000000e+00       8.583601791023e-12       1.391509340319e-12      -6.367470439346e-15 
   99       3.784954597929e-10       8.537512827280e-14      -2.872646286551e-12       0.000000000000e+00       8.354407607201e-12       1.363510474557e-12      -6.309558963664e-15 
  100       3.829321021296e-10       8.718075169128e-14      -2.955996459014e-12       0.000000000000e+00       8.132416172264e-12       1.336208761519e-12      -6.248393102640e-15 
  101       3.873901455827e-10       8.897736000508e-14      -3.039597729573e-12       0.000000000000e+00       7.917640197633e-12       1.309615343887e-12      -6.184383740529e-15 
  102       3.918694966591e-10       9.076345401710e-14      -3.123393474794e-12       0.000000000000e+00       7.710035211985e-12       1.283735369809e-12      -6.117972548926e-15 
  103       3.963699478456e-10       9.253751625620e-14      -3.207326139864e-12       0.000000000000e+00       7.509497525715e-12       1.258567767672e-12      -6.049632653312e-15 
  104       4.008911727693e-10       9.429801136763e-14      -3.291337253929e-12       0.000000000000e+00       7.315862195404e-12       1.234105020875e-12      -5.979869299607e-15 
  105       4.054327213562e-10       9.604338650346e-14      -3.375367445418e-12       0.000000000000e+00       7.128900988281e-12       1.210332942597e-12      -5.909220520723e-15 
  106       4.099940149910e-10       9.777207171300e-14      -3.459356457383e-12       0.000000000000e+00       6.948320346689e-12       1.187230450569e-12      -5.838257803115e-15 
  107       4.145743416766e-10       9.948248033320e-14      -3.543243162829e-12       0.000000000000e+00       6.773759352549e-12       1.164769341845e-12      -5.767586753330e-15 
