# dimensionless total lensed [l(l+1)/2pi] C_l's
# for l=2 to 2500, i.e. number of multipoles equal to 2499
#
# -> if you prefer output in CAMB/HealPix/LensPix units/order, set 'format' to 'camb' in input file
# -> if you don't want to see such a header, set 'headers' to 'no' in input file
# -> for CMB lensing (phi), these are C_l^phi-phi for the lensing potential.
#    Remember the conversion factors:
#    C_l^dd (deflection) = l(l+1) C_l^phi-phi
#    C_l^gg (shear/convergence) = 1/4 (l(l+1))^2 C_l^phi-phi
#
# 1:l     2:TT                     3:EE                     4:TE                     5:BB                     6:phiphi                 7:TPhi                   8:Ephi               
    2       1.114100918416e-10       3.044054704243e-15       2.622773414859e-13       1.634365678502e-19       7.745980808183e-09	 4.091314913306e-10      -1.526926206328e-12 
    3       1.053213288047e-10       3.914378727942e-15       2.956254113844e-13       3.269208841928e-19       4.713833904854e-09       2.862906887264e-10      -1.155794644734e-12 
    4       9.984529343450e-11       3.396541030420e-15       2.770885461321e-13       5.449742684328e-19       3.243391619305e-09       2.146936068110e-10      -7.533157255061e-13 
    5       9.595499786711e-11       2.273814548234e-15       2.364986740602e-13       8.176604149226e-19       2.399663891852e-09       1.682844062314e-10      -4.134902213754e-13 
    6       9.350681639362e-11       1.283522865675e-15       1.911345870039e-13       1.145058899246e-18       1.860295558433e-09       1.360585633305e-10      -1.623898979037e-13 
    7       9.214105492380e-11       7.146171420158e-16       1.509985963051e-13       1.527265064319e-18       1.490514607885e-09       1.125977579219e-10      -1.883309436379e-15 
    8       9.159986533253e-11       4.862988508369e-16       1.204494755360e-13       1.964389805106e-18       1.224092097759e-09       9.491561270058e-11       7.994475782241e-14 
    9       9.167214320152e-11       4.073510421722e-16       1.004052934872e-13       2.456559217653e-18       1.024919486268e-09       8.125669874698e-11       1.021963394025e-13 
   10       9.219362580781e-11       3.530752311460e-16       8.973444186592e-14       3.003914078897e-18       8.715974067690e-10       7.049448288201e-11       8.634951832531e-14 
   11       9.305704907016e-11       2.959534913439e-16       8.631257821141e-14       3.606609126908e-18       7.442214085051e-10       6.253141220745e-11       5.266072667605e-14 
   12       9.421804034055e-11       2.538480505734e-16       8.777969839005e-14       4.264812116635e-18       6.482493841537e-10       5.526208987200e-11       1.642270265668e-14 
   13       9.555705262701e-11       2.394445365015e-16       9.205760828412e-14       4.978702633844e-18       5.696686529696e-10       4.930896815828e-11      -1.197565616590e-14 
   14       9.710411287296e-11       2.473264082722e-16       9.766859080285e-14       5.748470659279e-18       5.044561504547e-10       4.413562262474e-11      -2.835833404987e-14 
   15       9.882571879281e-11       2.666457223415e-16       1.036617844401e-13       6.574314885858e-18       4.497031221820e-10       3.979830175793e-11      -3.253675371277e-14 
   16       1.006438477947e-10       2.936276137170e-16       1.095621671482e-13       7.456440803423e-18       4.032617550582e-10       3.607759199428e-11      -2.769147784950e-14 
   17       1.025453559517e-10       3.321650989098e-16       1.152935535414e-13       8.395058577580e-18       3.635147999874e-10       3.284514584872e-11      -1.824682240211e-14 
   18       1.045515764137e-10       3.872605395210e-16       1.210779988298e-13       9.390380893643e-18       3.290976312002e-10       3.003673297602e-11      -8.552407385824e-15 
   19       1.066598322170e-10       4.594985052410e-16       1.271212566942e-13       1.044261988624e-17       2.994310995759e-10       2.760275918930e-11      -1.137373182073e-15 
   20       1.088145074243e-10       5.473649731410e-16       1.335797890093e-13       1.155198607792e-17       2.733602321486e-10       2.543479264286e-11       2.126446207234e-15 
   21       1.110237939603e-10       6.500783917848e-16       1.404390900763e-13       1.271868420200e-17       2.504594838315e-10       2.349671973562e-11       1.442196298275e-15 
   22       1.132928042550e-10       7.669189871426e-16       1.475675298238e-13       1.394291231541e-17       2.301632720563e-10       2.174966662719e-11      -1.912035113504e-15 
   23       1.156273436926e-10       8.983562249158e-16       1.547316846464e-13       1.522485841439e-17       2.121894294393e-10       2.019786392876e-11      -6.401915174398e-15 
   24       1.180156119440e-10       1.045057864544e-15       1.616163268343e-13       1.656469937263e-17       1.961169936683e-10       1.883530837237e-11      -1.026618578015e-14 
   25       1.204533013563e-10       1.207039544830e-15       1.679311471605e-13       1.796259833928e-17       1.817204207532e-10       1.762543489407e-11      -1.258143558364e-14 
   26       1.229280610119e-10       1.384221829177e-15       1.733992657938e-13       1.941870391151e-17       1.687106002834e-10       1.651243004767e-11      -1.281604401966e-14 
   27       1.254469853479e-10       1.577766749248e-15       1.779379214221e-13       2.093315017224e-17       1.570154653254e-10       1.548913120581e-11      -1.133804077810e-14 
   28       1.280104959203e-10       1.789394866959e-15       1.815407952147e-13       2.250605386415e-17       1.464885601198e-10       1.455331262871e-11      -8.997589338904e-15 
   29       1.306075537140e-10       2.020870959601e-15       1.842255523768e-13       2.413751441937e-17       1.368683728476e-10       1.369367423107e-11      -6.766736316624e-15 
   30       1.332408147481e-10       2.273179928383e-15       1.860217665392e-13       2.582762027858e-17       1.280988089480e-10       1.290779417058e-11      -5.056806614983e-15 
   31       1.359084209120e-10       2.547021873290e-15       1.869818699583e-13       2.757644246835e-17       1.201121176804e-10       1.218929347560e-11      -4.144200798088e-15 
   32       1.386019870234e-10       2.843058795654e-15       1.871580704274e-13       2.938403502852e-17       1.127786831826e-10       1.152634352286e-11      -4.232832188781e-15 
   33       1.413275376360e-10       3.162073965328e-15       1.865034987769e-13       3.125044741118e-17       1.060565421253e-10       1.091607708343e-11      -5.056505754446e-15 
   34       1.440904850133e-10       3.504863354635e-15       1.849342122228e-13       3.317571465740e-17       9.988412755920e-11       1.035433944073e-11      -6.118284388994e-15 
   35       1.468909314894e-10       3.872200966457e-15       1.823568507112e-13       3.515985990322e-17       9.416716815974e-11       9.833926153190e-12      -6.904424977010e-15 
   36       1.497293064227e-10       4.264873711484e-15       1.786791494227e-13       3.720291788923e-17       8.888958706895e-11       9.353363732173e-12      -7.302144611235e-15 
   37       1.526013715324e-10       4.683654101964e-15       1.738015513749e-13       3.930491850177e-17       8.403377560101e-11       8.910503620008e-12      -7.321695786759e-15 
   38       1.554958052361e-10       5.129288029815e-15       1.676134047345e-13       4.146588000958e-17       7.954710849913e-11       8.499800134268e-12      -6.987201249718e-15 
   39       1.583995222843e-10       5.602454051240e-15       1.600200212733e-13       4.368581740520e-17       7.536064897931e-11       8.114235873616e-12      -6.352612491833e-15 
   40       1.613175731004e-10       6.103630222634e-15       1.510368928829e-13       4.596477187309e-17       7.146077077621e-11       7.752642999491e-12      -5.553293750396e-15 
   41       1.642588195886e-10       6.633177945067e-15       1.407262652635e-13       4.830279066610e-17       6.783656597083e-11       7.414358560297e-12      -4.773980819128e-15 
   42       1.672302191724e-10       7.191371224695e-15       1.291733634444e-13       5.069991945564e-17       6.445849636735e-11       7.097065678455e-12      -4.237774067046e-15 
   43       1.702362951373e-10       7.778485634991e-15       1.164559713775e-13       5.315620819782e-17       6.128914161506e-11       6.797726306418e-12      -4.143668871596e-15 
   44       1.732779770069e-10       8.395110900320e-15       1.025386768052e-13       5.567173032090e-17       5.832314581260e-11       6.516061268550e-12      -4.450411782469e-15 
   45       1.763529526718e-10       9.041926848091e-15       8.734789932348e-14       5.824656994514e-17       5.555709556187e-11       6.251917498007e-12      -5.029133842426e-15 
   46       1.794556291750e-10       9.719618277202e-15       7.080011960055e-14       6.088081737798e-17       5.297753647302e-11       6.004217678485e-12      -5.720519589292e-15 
   47       1.825768517854e-10       1.042887562772e-14       5.280120342779e-14       6.357456972048e-17       5.056019283046e-11       5.770887253665e-12      -6.333012802211e-15 
   48       1.857074045019e-10       1.117030737180e-14       3.326494563049e-14       6.632792924671e-17       4.827735280989e-11       5.549523606422e-12      -6.692768232984e-15 
   49       1.888503338969e-10       1.194414642086e-14       1.217646031749e-14       6.914099658630e-17       4.612430664811e-11       5.339796967444e-12      -6.814343969257e-15 
   50       1.920116165498e-10       1.275046210879e-14      -1.045450178961e-14       7.201387666213e-17       4.409902036812e-11       5.141600887397e-12      -6.775042429074e-15 
   51       1.951965950930e-10       1.358923750495e-14      -3.461091593522e-14       7.494668123029e-17       4.219426613580e-11       4.954334896613e-12      -6.668190383682e-15 
   52       1.984098902155e-10       1.446036557988e-14      -6.026817867375e-14       7.793952937299e-17       4.039725853566e-11       4.776869380341e-12      -6.603984805070e-15 
   53       2.016549797886e-10       1.536374921941e-14      -8.740582539632e-14       8.099253530418e-17       3.869361567468e-11       4.607918541329e-12      -6.682310544198e-15 
   54       2.049330117458e-10       1.629964028644e-14      -1.160469215615e-13       8.410576697081e-17       3.708127555088e-11       4.447352733214e-12      -6.901040336527e-15 
   55       2.082435325781e-10       1.726838106377e-14      -1.462282696663e-13       8.727927766510e-17       3.555952426010e-11       4.295162366874e-12      -7.225628989325e-15 
   56       2.115846938337e-10       1.827030854541e-14      -1.779894686126e-13       9.051311774169e-17       3.412480611345e-11       4.151061752451e-12      -7.614755638937e-15 
   57       2.149531501642e-10       1.930575495644e-14      -2.113731131259e-13       9.380733457850e-17       3.277054124758e-11       4.014471085185e-12      -8.019994413018e-15 
   58       2.183439573712e-10       2.037504827297e-14      -2.464249931741e-13       9.716197253759e-17       3.148694323493e-11       3.884498431248e-12      -8.385485092778e-15 
   59       2.217523095679e-10       2.147840330035e-14      -2.831820155121e-13       1.005770618558e-16       3.026368472391e-11       3.760193671365e-12      -8.660666033636e-15 
   60       2.251794533146e-10       2.261556418916e-14      -3.216322398849e-13       1.040525823930e-16       2.909903148625e-11       3.641420111292e-12      -8.842673910120e-15 
   61       2.286279691745e-10       2.378607967215e-14      -3.617458979918e-13       1.075884913808e-16       2.799251098926e-11       3.528153807494e-12      -8.943225895500e-15 
   62       2.321000145558e-10       2.498940208152e-14      -4.034866429913e-13       1.111847333470e-16       2.694216677905e-11       3.420220790967e-12      -8.976534291450e-15 
   63       2.355972841017e-10       2.622488415895e-14      -4.468113327209e-13       1.148412397010e-16       2.594447263415e-11       3.317288271983e-12      -8.959419978700e-15 
   64       2.391209700793e-10       2.749177586564e-14      -4.916698129164e-13       1.185579283191e-16       2.499424671914e-11       3.218855844828e-12      -8.911425867697e-15 
   65       2.426718779263e-10       2.878931741262e-14      -5.380159562877e-13       1.223347134975e-16       2.408606463519e-11       3.124397038413e-12      -8.850871500419e-15 
   66       2.462508903040e-10       3.011704841678e-14      -5.858439839788e-13       1.261715391886e-16       2.321903922373e-11       3.033838566835e-12      -8.781790853251e-15 
   67       2.498585308051e-10       3.147455870984e-14      -6.351594715774e-13       1.300683520834e-16       2.239290257516e-11       2.947167153355e-12      -8.704422816570e-15 
   68       2.534947828576e-10       3.286139740609e-14      -6.859688682536e-13       1.340250917437e-16       2.160655335622e-11       2.864283636526e-12      -8.619025861418e-15 
   69       2.571590544544e-10       3.427707240395e-14      -7.382795948281e-13       1.380416904781e-16       2.085801289082e-11       2.784998380414e-12      -8.525877955925e-15 
   70       2.608501428822e-10       3.572104988743e-14      -7.921001418414e-13       1.421180732171e-16       2.014438124079e-11       2.709026684820e-12      -8.425276481734e-15 
   71       2.645661994514e-10       3.719275382762e-14      -8.474401676222e-13       1.462541573890e-16       1.946179328676e-11       2.635984195497e-12      -8.317538150427e-15 
   72       2.683054428730e-10       3.869155347557e-14      -9.043036552569e-13       1.504498843938e-16       1.880640352551e-11       2.565489655754e-12      -8.203221714001e-15 
   73       2.720685362968e-10       4.021672416950e-14      -9.626666448957e-13       1.547053212963e-16       1.817765690419e-11       2.497506194451e-12      -8.083845773222e-15 
   74       2.758566049308e-10       4.176747806863e-14      -1.022495384488e-12       1.590205785189e-16       1.757556937687e-11       2.432057558778e-12      -7.961309243023e-15 
   75       2.796705099518e-10       4.334297473563e-14      -1.083752832787e-12       1.633957805597e-16       1.699973473201e-11       2.369124474681e-12      -7.837685684612e-15 
   76       2.835108303276e-10       4.494232036398e-14      -1.146398598942e-12       1.678310665896e-16       1.644930416002e-11       2.308642507802e-12      -7.715228308520e-15 
   77       2.873778446391e-10       4.656456700524e-14      -1.210388882097e-12       1.723265910493e-16       1.592296582065e-11       2.250499924414e-12      -7.596374977651e-15 
   78       2.912715129014e-10       4.820871179638e-14      -1.275676410987e-12       1.768825242459e-16       1.541892441059e-11       2.194535552360e-12      -7.483753210327e-15 
   79       2.951914583863e-10       4.987369618714e-14      -1.342210383533e-12       1.814990529505e-16       1.493488073089e-11       2.140536641986e-12      -7.380185183336e-15 
   80       2.991372495114e-10       5.155842524107e-14      -1.409940804303e-12       1.861763863090e-16       1.446859763773e-11       2.088295178101e-12      -7.288049980550e-15 
   81       3.031093418770e-10       5.326183109899e-14      -1.478832497272e-12       1.909147734436e-16       1.401975603638e-11       2.037792784173e-12      -7.207231781786e-15 
   82       3.071082674103e-10       5.498281917806e-14      -1.548853427730e-12       1.957144900125e-16       1.358838541957e-11       1.989044175160e-12      -7.136822808819e-15 
   83       3.111343364026e-10       5.672024868215e-14      -1.619970541273e-12       2.005758338517e-16       1.317429668684e-11       1.942040518278e-12      -7.075727637412e-15 
   84       3.151876248873e-10       5.847293220088e-14      -1.692149784844e-12       2.054991256705e-16       1.277707257103e-11       1.896748376369e-12      -7.022656297512e-15 
   85       3.192679620192e-10       6.023963530871e-14      -1.765356127770e-12       2.104847097473e-16       1.239605806468e-11       1.853108651260e-12      -6.976117373433e-15 
   86       3.233749174528e-10       6.201907616396e-14      -1.839553582801e-12       2.155329546243e-16       1.203035084647e-11       1.811035527129e-12      -6.934411104044e-15 
   87       3.275077887210e-10       6.380992510788e-14      -1.914705227145e-12       2.206442538037e-16       1.167879170769e-11       1.770415413868e-12      -6.895622482957e-15 
   88       3.316655886139e-10       6.561080426370e-14      -1.990773223510e-12       2.258190264426e-16       1.133995497866e-11       1.731105890443e-12      -6.857614358718e-15 
   89       3.358473712931e-10       6.742031306034e-14      -2.067717843522e-12       2.310576766562e-16       1.101248530678e-11       1.692970485360e-12      -6.818438633374e-15 
   90       3.400532967757e-10       6.923711026605e-14      -2.145494316567e-12       2.363604625953e-16       1.069618940328e-11       1.655991573952e-12      -6.777658821586e-15 
   91       3.442837109560e-10       7.105984414432e-14      -2.224055523094e-12       2.417276080168e-16       1.039109871432e-11       1.620173326636e-12      -6.735223210866e-15 
   92       3.485388142940e-10       7.288712766240e-14      -2.303352954242e-12       2.471593419224e-16       1.009713399152e-11       1.585506935869e-12      -6.691064604772e-15 
   93       3.528186542685e-10       7.471753847879e-14      -2.383336717925e-12       2.526558986338e-16       9.814100907222e-12       1.551970096399e-12      -6.645099686751e-15 
   94       3.571231178301e-10       7.654961893061e-14      -2.463955544928e-12       2.582175178679e-16       9.541685669680e-12       1.519526485514e-12      -6.597228383966e-15 
   95       3.614519238552e-10       7.838187602109e-14      -2.545156795000e-12       2.638444448122e-16       9.279450638315e-12       1.488125243286e-12      -6.547333231132e-15 
   96       3.658046155988e-10       8.021278140698e-14      -2.626886462946e-12       2.695369301999e-16       9.026829938935e-12       1.457700452828e-12      -6.495278734351e-15 
   97       3.701805531480e-10       8.204077138599e-14      -2.709089184718e-12       2.752952303857e-16       8.783125078960e-12       1.428170620533e-12      -6.440910734946e-15 
   98       3.745789058756e-10       8.386424688426e-14      -2.791708243508e-12       2.811196074206e-16       8.547500562657e-12       1.399438156328e-12      -6.384055773290e-15 
   99       3.789988618625e-10       8.568160773054e-14      -2.874686268713e-12       2.870103430362e-16       8.319173917662e-12       1.371413007417e-12      -6.324605795309e-15 
  100       3.834403063248e-10       8.749136104538e-14      -2.957967432616e-12       2.929677826944e-16       8.098025964117e-12       1.344088502608e-12      -6.262787337047e-15 
  101       3.879032257082e-10       8.929202825239e-14      -3.041495577609e-12       2.989922979458e-16       7.884069241440e-12       1.317475335114e-12      -6.198929463341e-15 
  102       3.923874944362e-10       9.108211255913e-14      -3.125213565394e-12       3.050842733187e-16       7.677259305931e-12       1.291578143337e-12      -6.133382219916e-15 
  103       3.968928699937e-10       9.286009936004e-14      -3.209063291463e-12       3.112441065625e-16       7.477492702501e-12       1.266395283889e-12      -6.066517031678e-15 
  104       4.014189880104e-10       9.462445663959e-14      -3.292985699600e-12       3.174722088917e-16       7.284604936401e-12       1.241918604605e-12      -5.998727100997e-15 
  105       4.059653573436e-10       9.637363537522e-14      -3.376920796364e-12       3.237690052303e-16       7.098368444952e-12       1.218133217564e-12      -5.930427806007e-15 
  106       4.105313551622e-10       9.810606994042e-14      -3.460807665586e-12       3.301349344550e-16       6.918490569272e-12       1.195017272109e-12      -5.862057098885e-15 
